Time (s)	O2 conc. (ppm)
0.10	9.593E+04	10.0
0.66	9.594E+04	10.0
2.95	9.594E+04	10.0
3.27	9.649E+04	10.0
3.55	9.713E+04	10.0
3.87	9.846E+04	10.0
4.18	1.005E+05	10.0
4.50	1.034E+05	10.0
4.78	1.066E+05	10.0
5.07	1.102E+05	10.0
5.36	1.143E+05	10.0
5.65	1.184E+05	10.0
5.93	1.228E+05	10.0
6.22	1.272E+05	10.0
6.51	1.315E+05	10.0
6.79	1.357E+05	10.0
7.10	1.401E+05	10.0
7.37	1.437E+05	10.0
7.65	1.475E+05	10.0
7.96	1.514E+05	10.0
8.25	1.549E+05	10.0
8.54	1.582E+05	10.0
8.83	1.612E+05	10.0
9.11	1.641E+05	10.0
9.37	1.666E+05	10.0
9.65	1.692E+05	10.0
9.94	1.715E+05	10.0
10.22	1.738E+05	10.0
10.51	1.759E+05	10.0
10.80	1.779E+05	10.0
11.06	1.796E+05	10.0
11.35	1.813E+05	10.0
11.63	1.829E+05	10.0
11.92	1.844E+05	10.0
12.20	1.858E+05	10.0
12.49	1.871E+05	10.0
12.77	1.884E+05	10.0
13.06	1.895E+05	10.0
13.35	1.906E+05	10.0
13.67	1.917E+05	10.0
13.95	1.926E+05	10.0
14.24	1.934E+05	10.0
14.53	1.942E+05	10.0
14.81	1.949E+05	10.0
15.10	1.956E+05	10.0
15.39	1.962E+05	10.0
15.67	1.967E+05	10.0
15.96	1.972E+05	10.0
16.25	1.977E+05	10.0
16.54	1.981E+05	10.0
16.82	1.984E+05	10.0
17.11	1.988E+05	10.0
17.39	1.991E+05	10.0
17.68	1.993E+05	10.0
17.96	1.995E+05	10.0
18.25	1.997E+05	10.0
18.54	1.999E+05	10.0
18.83	2.000E+05	10.0
19.14	2.001E+05	10.0
19.43	2.002E+05	10.0
19.71	2.003E+05	10.0
20.00	2.003E+05	10.0
20.28	2.003E+05	10.0
20.57	2.003E+05	10.0
20.85	2.003E+05	10.0
21.13	2.003E+05	10.0
21.43	2.003E+05	10.0
21.71	2.002E+05	10.0
21.99	2.002E+05	10.0
22.28	2.001E+05	10.0
22.57	2.000E+05	10.0
22.85	2.000E+05	10.0
23.13	1.999E+05	10.0
23.42	1.998E+05	10.0
23.71	1.998E+05	10.0
24.00	1.997E+05	10.0
24.28	1.995E+05	10.0
24.57	1.994E+05	10.0
24.85	1.993E+05	10.0
25.14	1.992E+05	10.0
25.43	1.991E+05	10.0
25.72	1.990E+05	10.0
26.00	1.989E+05	10.0
26.29	1.987E+05	10.0
26.58	1.986E+05	10.0
26.87	1.985E+05	10.0
27.15	1.984E+05	10.0
27.44	1.982E+05	10.0
27.72	1.981E+05	10.0
28.01	1.979E+05	10.0
28.32	1.977E+05	10.0
28.61	1.976E+05	10.0
28.89	1.975E+05	10.0
29.18	1.972E+05	10.0
29.50	1.970E+05	10.0
29.78	1.968E+05	10.0
30.09	1.966E+05	10.0
30.38	1.964E+05	10.0
30.67	1.961E+05	10.0
30.95	1.959E+05	10.0
31.26	1.957E+05	10.0
31.55	1.954E+05	10.0
31.84	1.951E+05	10.0
32.13	1.949E+05	10.0
32.41	1.946E+05	10.0
32.70	1.943E+05	10.0
32.98	1.940E+05	10.0
33.27	1.937E+05	10.0
33.58	1.933E+05	10.0
33.90	1.929E+05	10.0
34.18	1.926E+05	10.0
34.47	1.922E+05	10.0
34.76	1.919E+05	10.0
35.05	1.915E+05	10.0
35.33	1.911E+05	10.0
35.65	1.907E+05	10.0
35.96	1.902E+05	10.0
36.24	1.897E+05	10.0
36.56	1.892E+05	10.0
36.87	1.887E+05	10.0
37.16	1.883E+05	10.0
37.47	1.878E+05	10.0
37.79	1.872E+05	10.0
38.10	1.867E+05	10.0
38.41	1.862E+05	10.0
38.72	1.856E+05	10.0
39.04	1.850E+05	10.0
39.35	1.844E+05	10.0
39.64	1.839E+05	10.0
39.95	1.833E+05	10.0
40.27	1.827E+05	10.0
40.58	1.820E+05	10.0
40.89	1.814E+05	10.0
41.21	1.808E+05	10.0
41.49	1.802E+05	10.0
41.78	1.796E+05	10.0
42.09	1.790E+05	10.0
42.38	1.784E+05	10.0
42.70	1.777E+05	10.0
43.01	1.770E+05	10.0
43.32	1.764E+05	10.0
43.64	1.757E+05	10.0
43.92	1.750E+05	10.0
44.23	1.743E+05	10.0
44.55	1.737E+05	10.0
44.87	1.729E+05	10.0
45.18	1.722E+05	10.0
45.49	1.715E+05	10.0
45.81	1.708E+05	10.0
46.12	1.701E+05	10.0
46.43	1.694E+05	10.0
46.72	1.687E+05	10.0
47.03	1.680E+05	10.0
47.35	1.673E+05	10.0
47.64	1.665E+05	10.0
47.95	1.658E+05	10.0
48.26	1.651E+05	10.0
48.58	1.643E+05	10.0
48.89	1.636E+05	10.0
49.20	1.628E+05	10.0
49.52	1.621E+05	10.0
49.80	1.614E+05	10.0
50.12	1.606E+05	10.0
50.44	1.598E+05	10.0
50.75	1.591E+05	10.0
51.04	1.584E+05	10.0
51.35	1.576E+05	10.0
51.66	1.569E+05	10.0
51.98	1.561E+05	10.0
52.29	1.553E+05	10.0
52.60	1.546E+05	10.0
52.92	1.538E+05	10.0
53.23	1.530E+05	10.0
53.57	1.522E+05	10.0
53.88	1.514E+05	10.0
54.20	1.507E+05	10.0
54.51	1.499E+05	10.0
54.85	1.491E+05	10.0
55.16	1.483E+05	10.0
55.49	1.475E+05	10.0
55.83	1.467E+05	10.0
56.14	1.459E+05	10.0
56.48	1.451E+05	10.0
56.79	1.443E+05	10.0
57.10	1.436E+05	10.0
57.42	1.428E+05	10.0
57.73	1.421E+05	10.0
58.05	1.413E+05	10.0
58.36	1.406E+05	10.0
58.68	1.398E+05	10.0
58.99	1.391E+05	10.0
59.30	1.383E+05	10.0
59.62	1.376E+05	10.0
59.93	1.368E+05	10.0
60.27	1.360E+05	10.0
60.59	1.353E+05	10.0
60.93	1.345E+05	10.0
61.24	1.338E+05	10.0
61.55	1.330E+05	10.0
61.89	1.322E+05	10.0
62.21	1.315E+05	10.0
62.52	1.308E+05	10.0
62.83	1.301E+05	10.0
63.14	1.293E+05	10.0
63.46	1.286E+05	10.0
63.80	1.279E+05	10.0
64.12	1.271E+05	10.0
64.46	1.264E+05	10.0
64.80	1.256E+05	10.0
65.11	1.249E+05	10.0
65.45	1.242E+05	10.0
65.77	1.235E+05	10.0
66.08	1.228E+05	10.0
66.40	1.221E+05	10.0
66.74	1.214E+05	10.0
67.08	1.206E+05	10.0
67.41	1.199E+05	10.0
67.75	1.192E+05	10.0
68.07	1.185E+05	10.0
68.42	1.178E+05	10.0
68.76	1.171E+05	10.0
69.10	1.164E+05	10.0
69.44	1.157E+05	10.0
69.77	1.149E+05	10.0
70.11	1.142E+05	10.0
70.45	1.135E+05	10.0
70.79	1.128E+05	10.0
71.12	1.122E+05	10.0
71.43	1.115E+05	10.0
71.74	1.109E+05	10.0
72.08	1.102E+05	10.0
72.42	1.095E+05	10.0
72.73	1.089E+05	10.0
73.07	1.082E+05	10.0
73.41	1.075E+05	10.0
73.73	1.069E+05	10.0
74.10	1.062E+05	10.0
74.44	1.055E+05	10.0
74.78	1.048E+05	10.0
75.12	1.042E+05	10.0
75.46	1.035E+05	10.0
75.80	1.029E+05	10.0
76.14	1.022E+05	10.0
76.48	1.016E+05	10.0
76.80	1.010E+05	10.0
77.14	1.004E+05	10.0
77.48	9.971E+04	10.0
77.82	9.907E+04	10.0
78.16	9.844E+04	10.0
78.50	9.784E+04	10.0
78.81	9.726E+04	10.0
79.15	9.663E+04	10.0
79.50	9.602E+04	10.0
79.83	9.542E+04	10.0
80.17	9.482E+04	10.0
80.51	9.421E+04	10.0
80.85	9.362E+04	10.0
81.19	9.301E+04	10.0
81.54	9.243E+04	10.0
81.88	9.185E+04	10.0
82.21	9.124E+04	10.0
82.56	9.068E+04	10.0
82.89	9.010E+04	10.0
83.23	8.953E+04	10.0
83.57	8.897E+04	10.0
83.91	8.838E+04	10.0
84.28	8.776E+04	10.0
84.62	8.721E+04	10.0
84.96	8.664E+04	10.0
85.27	8.615E+04	10.0
85.61	8.558E+04	10.0
85.95	8.504E+04	10.0
86.29	8.448E+04	10.0
86.64	8.395E+04	10.0
86.98	8.339E+04	10.0
87.32	8.284E+04	10.0
87.66	8.232E+04	10.0
87.97	8.183E+04	10.0
88.31	8.129E+04	10.0
88.65	8.075E+04	10.0
88.99	8.024E+04	10.0
89.34	7.971E+04	10.0
89.68	7.918E+04	10.0
90.04	7.863E+04	10.0
90.36	7.816E+04	10.0
90.70	7.765E+04	10.0
91.06	7.711E+04	10.0
91.40	7.660E+04	10.0
91.74	7.612E+04	10.0
92.12	7.556E+04	10.0
92.46	7.506E+04	10.0
92.80	7.457E+04	10.0
93.16	7.405E+04	10.0
93.51	7.358E+04	10.0
93.84	7.307E+04	10.0
94.19	7.261E+04	10.0
94.53	7.211E+04	10.0
94.90	7.163E+04	10.0
95.24	7.116E+04	10.0
95.58	7.069E+04	10.0
95.92	7.022E+04	10.0
96.26	6.978E+04	10.0
96.60	6.932E+04	10.0
96.94	6.886E+04	10.0
97.28	6.840E+04	10.0
97.62	6.795E+04	10.0
97.96	6.750E+04	10.0
98.33	6.703E+04	10.0
98.64	6.663E+04	10.0
98.98	6.619E+04	10.0
99.35	6.571E+04	10.0
99.66	6.532E+04	10.0
100.00	6.489E+04	10.0
100.34	6.448E+04	10.0
100.68	6.405E+04	10.0
101.02	6.365E+04	10.0
101.36	6.323E+04	10.0
101.70	6.281E+04	10.0
102.04	6.241E+04	10.0
102.39	6.198E+04	10.0
102.73	6.159E+04	10.0
103.07	6.120E+04	10.0
103.41	6.080E+04	10.0
103.75	6.042E+04	10.0
104.09	6.004E+04	10.0
104.45	5.962E+04	10.0
104.80	5.925E+04	10.0
105.14	5.885E+04	10.0
105.51	5.844E+04	10.0
105.85	5.810E+04	10.0
106.18	5.773E+04	10.0
106.53	5.737E+04	10.0
106.86	5.703E+04	10.0
107.20	5.665E+04	10.0
107.55	5.631E+04	10.0
107.89	5.598E+04	10.0
108.22	5.564E+04	10.0
108.59	5.527E+04	10.0
108.93	5.495E+04	10.0
109.27	5.462E+04	10.0
109.64	5.427E+04	10.0
109.98	5.393E+04	10.0
110.32	5.363E+04	10.0
110.69	5.329E+04	10.0
111.03	5.299E+04	10.0
111.37	5.268E+04	10.0
111.73	5.236E+04	10.0
112.07	5.207E+04	10.0
112.41	5.178E+04	10.0
112.76	5.150E+04	10.0
113.10	5.123E+04	10.0
113.44	5.094E+04	10.0
113.80	5.065E+04	10.0
114.14	5.040E+04	10.0
114.48	5.015E+04	10.0
114.85	4.987E+04	10.0
115.20	4.962E+04	10.0
115.54	4.938E+04	10.0
115.90	4.911E+04	10.0
116.24	4.889E+04	10.0
116.61	4.864E+04	10.0
117.00	4.839E+04	10.0
117.37	4.816E+04	10.0
117.71	4.794E+04	10.0
118.08	4.772E+04	10.0
118.45	4.750E+04	10.0
118.81	4.729E+04	10.0
119.18	4.709E+04	10.0
119.52	4.690E+04	10.0
119.89	4.671E+04	10.0
120.25	4.654E+04	10.0
120.60	4.636E+04	10.0
120.94	4.620E+04	10.0
121.31	4.605E+04	10.0
121.67	4.588E+04	10.0
122.01	4.573E+04	10.0
122.41	4.558E+04	10.0
122.77	4.546E+04	10.0
123.14	4.534E+04	10.0
123.51	4.522E+04	10.0
123.85	4.510E+04	10.0
124.22	4.498E+04	10.0
124.58	4.489E+04	10.0
124.95	4.477E+04	10.0
125.32	4.471E+04	10.0
125.70	4.459E+04	10.0
126.06	4.453E+04	10.0
126.45	4.445E+04	10.0
126.82	4.442E+04	10.0
127.19	4.436E+04	10.0
127.56	4.430E+04	10.0
127.92	4.427E+04	10.0
128.30	4.424E+04	10.0
128.66	4.424E+04	10.0
129.03	4.421E+04	10.0
129.40	4.421E+04	10.0
129.76	4.421E+04	10.0
130.15	4.424E+04	10.0
130.50	4.424E+04	10.0
130.87	4.430E+04	10.0
131.23	4.433E+04	10.0
131.60	4.436E+04	10.0
131.97	4.442E+04	10.0
132.36	4.450E+04	10.0
132.75	4.456E+04	10.0
133.12	4.465E+04	10.0
133.49	4.474E+04	10.0
133.86	4.486E+04	10.0
134.23	4.495E+04	10.0
134.59	4.507E+04	10.0
134.96	4.519E+04	10.0
135.32	4.534E+04	10.0
135.71	4.549E+04	10.0
136.12	4.567E+04	10.0
136.48	4.585E+04	10.0
136.88	4.602E+04	10.0
137.25	4.620E+04	10.0
137.61	4.640E+04	10.0
138.03	4.664E+04	10.0
138.40	4.685E+04	10.0
138.77	4.709E+04	10.0
139.17	4.735E+04	10.0
139.53	4.761E+04	10.0
139.90	4.786E+04	10.0
140.27	4.813E+04	10.0
140.63	4.842E+04	10.0
141.00	4.871E+04	10.0
141.40	4.905E+04	10.0
141.76	4.936E+04	10.0
142.13	4.969E+04	10.0
142.53	5.005E+04	10.0
142.89	5.040E+04	10.0
143.26	5.076E+04	10.0
143.65	5.114E+04	10.0
144.02	5.155E+04	10.0
144.39	5.195E+04	10.0
144.78	5.238E+04	10.0
145.15	5.278E+04	10.0
145.52	5.322E+04	10.0
145.91	5.368E+04	10.0
146.28	5.413E+04	10.0
146.65	5.460E+04	10.0
147.04	5.511E+04	10.0
147.41	5.561E+04	10.0
147.78	5.611E+04	10.0
148.17	5.665E+04	10.0
148.53	5.718E+04	10.0
148.91	5.769E+04	10.0
149.30	5.829E+04	10.0
149.70	5.887E+04	10.0
150.06	5.944E+04	10.0
150.45	6.006E+04	10.0
150.82	6.064E+04	10.0
151.21	6.126E+04	10.0
151.59	6.188E+04	10.0
151.96	6.248E+04	10.0
152.32	6.312E+04	10.0
152.72	6.380E+04	10.0
153.11	6.448E+04	10.0
153.48	6.512E+04	10.0
153.84	6.577E+04	10.0
154.21	6.645E+04	10.0
154.58	6.712E+04	10.0
154.97	6.786E+04	10.0
155.37	6.858E+04	10.0
155.73	6.927E+04	10.0
156.13	7.003E+04	10.0
156.50	7.073E+04	10.0
156.90	7.151E+04	10.0
157.32	7.235E+04	10.0
157.71	7.312E+04	10.0
158.11	7.393E+04	10.0
158.50	7.472E+04	10.0
158.89	7.549E+04	10.0
159.29	7.632E+04	10.0
159.71	7.716E+04	10.0
160.13	7.804E+04	10.0
160.53	7.887E+04	10.0
160.95	7.974E+04	10.0
161.34	8.056E+04	10.0
161.71	8.134E+04	10.0
162.11	8.218E+04	10.0
162.48	8.295E+04	10.0
162.90	8.386E+04	10.0
163.29	8.470E+04	10.0
163.69	8.552E+04	10.0
164.08	8.638E+04	10.0
164.48	8.724E+04	10.0
164.85	8.803E+04	10.0
165.21	8.882E+04	10.0
165.61	8.968E+04	10.0
166.00	9.052E+04	10.0
166.40	9.135E+04	10.0
166.79	9.220E+04	10.0
167.16	9.300E+04	10.0
167.56	9.383E+04	10.0
167.95	9.469E+04	10.0
168.35	9.552E+04	10.0
168.74	9.638E+04	10.0
169.13	9.721E+04	10.0
169.53	9.805E+04	10.0
169.93	9.892E+04	10.0
170.32	9.974E+04	10.0
170.71	1.006E+05	10.0
171.14	1.015E+05	10.0
171.53	1.023E+05	10.0
171.92	1.031E+05	10.0
172.30	1.039E+05	10.0
172.69	1.047E+05	10.0
173.09	1.055E+05	10.0
173.48	1.063E+05	10.0
173.88	1.071E+05	10.0
174.27	1.079E+05	10.0
174.66	1.087E+05	10.0
175.07	1.095E+05	10.0
175.46	1.103E+05	10.0
175.85	1.111E+05	10.0
176.25	1.118E+05	10.0
176.64	1.126E+05	10.0
177.04	1.134E+05	10.0
177.44	1.142E+05	10.0
177.83	1.149E+05	10.0
178.23	1.157E+05	10.0
178.62	1.164E+05	10.0
179.02	1.171E+05	10.0
179.41	1.178E+05	10.0
179.83	1.186E+05	10.0
180.23	1.193E+05	10.0
180.63	1.201E+05	10.0
181.02	1.207E+05	10.0
181.41	1.214E+05	10.0
181.80	1.221E+05	10.0
182.20	1.228E+05	10.0
182.60	1.235E+05	10.0
182.99	1.241E+05	10.0
183.39	1.248E+05	10.0
183.78	1.254E+05	10.0
184.17	1.260E+05	10.0
184.57	1.267E+05	10.0
184.96	1.273E+05	10.0
185.37	1.279E+05	10.0
185.76	1.285E+05	10.0
186.15	1.291E+05	10.0
186.55	1.297E+05	10.0
186.97	1.303E+05	10.0
187.36	1.308E+05	10.0
187.76	1.314E+05	10.0
188.18	1.320E+05	10.0
188.58	1.325E+05	10.0
189.00	1.331E+05	10.0
189.40	1.336E+05	10.0
189.81	1.342E+05	10.0
190.21	1.346E+05	10.0
190.61	1.351E+05	10.0
191.00	1.356E+05	10.0
191.40	1.361E+05	10.0
191.79	1.365E+05	10.0
192.21	1.370E+05	10.0
192.61	1.374E+05	10.0
193.01	1.379E+05	10.0
193.43	1.383E+05	10.0
193.88	1.388E+05	10.0
194.27	1.392E+05	10.0
194.69	1.396E+05	10.0
195.09	1.400E+05	10.0
195.48	1.403E+05	10.0
195.88	1.407E+05	10.0
196.30	1.411E+05	10.0
196.70	1.414E+05	10.0
197.12	1.417E+05	10.0
197.52	1.421E+05	10.0
197.94	1.424E+05	10.0
198.34	1.426E+05	10.0
198.73	1.429E+05	10.0
199.15	1.432E+05	10.0
199.55	1.435E+05	10.0
199.97	1.437E+05	10.0
200.39	1.440E+05	10.0
200.82	1.442E+05	10.0
201.24	1.445E+05	10.0
201.66	1.447E+05	10.0
202.08	1.449E+05	10.0
202.50	1.451E+05	10.0
202.95	1.453E+05	10.0
203.38	1.454E+05	10.0
203.80	1.455E+05	10.0
204.25	1.457E+05	10.0
204.67	1.458E+05	10.0
205.09	1.460E+05	10.0
205.51	1.461E+05	10.0
205.93	1.461E+05	10.0
206.34	1.462E+05	10.0
206.76	1.463E+05	10.0
207.17	1.463E+05	10.0
207.59	1.464E+05	10.0
208.01	1.464E+05	10.0
208.41	1.464E+05	10.0
208.81	1.464E+05	10.0
209.22	1.464E+05	10.0
209.64	1.464E+05	10.0
210.04	1.463E+05	10.0
210.46	1.463E+05	10.0
210.88	1.462E+05	10.0
211.30	1.461E+05	10.0
211.72	1.461E+05	10.0
212.14	1.460E+05	10.0
212.56	1.459E+05	10.0
212.98	1.457E+05	10.0
213.40	1.456E+05	10.0
213.83	1.454E+05	10.0
214.28	1.453E+05	10.0
214.70	1.451E+05	10.0
215.12	1.449E+05	10.0
215.54	1.447E+05	10.0
215.94	1.446E+05	10.0
216.34	1.443E+05	10.0
216.75	1.441E+05	10.0
217.15	1.439E+05	10.0
217.57	1.436E+05	10.0
217.99	1.434E+05	10.0
218.41	1.431E+05	10.0
218.81	1.428E+05	10.0
219.27	1.425E+05	10.0
219.68	1.422E+05	10.0
220.13	1.418E+05	10.0
220.55	1.415E+05	10.0
220.97	1.412E+05	10.0
221.40	1.408E+05	10.0
221.82	1.404E+05	10.0
222.24	1.400E+05	10.0
222.69	1.397E+05	10.0
223.11	1.392E+05	10.0
223.54	1.388E+05	10.0
223.96	1.384E+05	10.0
224.38	1.380E+05	10.0
224.80	1.376E+05	10.0
225.22	1.371E+05	10.0
225.65	1.366E+05	10.0
226.07	1.362E+05	10.0
226.49	1.357E+05	10.0
226.95	1.352E+05	10.0
227.39	1.346E+05	10.0
227.84	1.341E+05	10.0
228.29	1.336E+05	10.0
228.74	1.330E+05	10.0
229.17	1.325E+05	10.0
229.61	1.319E+05	10.0
230.06	1.313E+05	10.0
230.51	1.307E+05	10.0
230.96	1.301E+05	10.0
231.38	1.296E+05	10.0
231.81	1.290E+05	10.0
232.26	1.284E+05	10.0
232.68	1.278E+05	10.0
233.10	1.272E+05	10.0
233.54	1.266E+05	10.0
233.99	1.259E+05	10.0
234.42	1.253E+05	10.0
234.87	1.246E+05	10.0
235.32	1.239E+05	10.0
235.74	1.233E+05	10.0
236.19	1.227E+05	10.0
236.58	1.221E+05	10.0
237.04	1.214E+05	10.0
237.46	1.207E+05	10.0
237.88	1.201E+05	10.0
238.30	1.194E+05	10.0
238.75	1.187E+05	10.0
239.17	1.180E+05	10.0
239.57	1.174E+05	10.0
240.02	1.167E+05	10.0
240.44	1.160E+05	10.0
240.89	1.153E+05	10.0
241.33	1.145E+05	10.0
241.78	1.139E+05	10.0
242.21	1.132E+05	10.0
242.66	1.124E+05	10.0
243.08	1.117E+05	10.0
243.53	1.110E+05	10.0
243.97	1.102E+05	10.0
244.40	1.095E+05	10.0
244.85	1.088E+05	10.0
245.30	1.081E+05	10.0
245.75	1.073E+05	10.0
246.20	1.066E+05	10.0
246.65	1.058E+05	10.0
247.09	1.051E+05	10.0
247.52	1.044E+05	10.0
247.97	1.036E+05	10.0
248.42	1.029E+05	10.0
248.86	1.022E+05	10.0
249.31	1.014E+05	10.0
249.76	1.007E+05	10.0
250.19	9.998E+04	10.0
250.63	9.925E+04	10.0
251.06	9.856E+04	10.0
251.48	9.786E+04	10.0
251.92	9.713E+04	10.0
252.35	9.646E+04	10.0
252.77	9.575E+04	10.0
253.25	9.496E+04	10.0
253.67	9.432E+04	10.0
254.12	9.359E+04	10.0
254.57	9.286E+04	10.0
254.99	9.218E+04	10.0
255.42	9.151E+04	10.0
255.86	9.079E+04	10.0
256.31	9.010E+04	10.0
256.76	8.941E+04	10.0
257.23	8.864E+04	10.0
257.65	8.800E+04	10.0
258.08	8.733E+04	10.0
258.53	8.664E+04	10.0
258.98	8.598E+04	10.0
259.43	8.527E+04	10.0
259.87	8.462E+04	10.0
260.29	8.397E+04	10.0
260.75	8.328E+04	10.0
261.20	8.262E+04	10.0
261.64	8.196E+04	10.0
262.09	8.134E+04	10.0
262.54	8.067E+04	10.0
262.99	8.003E+04	10.0
263.41	7.942E+04	10.0
263.86	7.882E+04	10.0
264.31	7.819E+04	10.0
264.73	7.762E+04	10.0
265.18	7.701E+04	10.0
265.61	7.640E+04	10.0
266.06	7.581E+04	10.0
266.53	7.521E+04	10.0
266.98	7.462E+04	10.0
267.40	7.407E+04	10.0
267.87	7.346E+04	10.0
268.30	7.293E+04	10.0
268.75	7.237E+04	10.0
269.23	7.180E+04	10.0
269.67	7.125E+04	10.0
270.12	7.073E+04	10.0
270.60	7.017E+04	10.0
271.03	6.966E+04	10.0
271.47	6.915E+04	10.0
272.00	6.858E+04	10.0
272.45	6.808E+04	10.0
272.95	6.754E+04	10.0
273.44	6.703E+04	10.0
273.91	6.657E+04	10.0
274.36	6.610E+04	10.0
274.83	6.567E+04	10.0
275.28	6.523E+04	10.0
275.73	6.482E+04	10.0
276.18	6.441E+04	10.0
276.63	6.401E+04	10.0
277.08	6.363E+04	10.0
277.56	6.325E+04	10.0
278.00	6.287E+04	10.0
278.45	6.254E+04	10.0
278.93	6.219E+04	10.0
279.38	6.186E+04	10.0
279.83	6.155E+04	10.0
280.30	6.122E+04	10.0
280.75	6.096E+04	10.0
281.20	6.068E+04	10.0
281.68	6.042E+04	10.0
282.12	6.018E+04	10.0
282.57	5.996E+04	10.0
283.05	5.972E+04	10.0
283.50	5.954E+04	10.0
283.95	5.934E+04	10.0
284.43	5.919E+04	10.0
284.90	5.901E+04	10.0
285.35	5.889E+04	10.0
285.82	5.876E+04	10.0
286.28	5.866E+04	10.0
286.72	5.858E+04	10.0
287.20	5.850E+04	10.0
287.64	5.844E+04	10.0
288.09	5.841E+04	10.0
288.57	5.839E+04	10.0
289.02	5.837E+04	10.0
289.47	5.839E+04	10.0
289.94	5.842E+04	10.0
290.40	5.846E+04	10.0
290.87	5.854E+04	10.0
291.35	5.862E+04	10.0
291.80	5.872E+04	10.0
292.25	5.883E+04	10.0
292.75	5.897E+04	10.0
293.19	5.913E+04	10.0
293.64	5.928E+04	10.0
294.15	5.948E+04	10.0
294.60	5.968E+04	10.0
295.04	5.990E+04	10.0
295.52	6.014E+04	10.0
295.99	6.040E+04	10.0
296.44	6.066E+04	10.0
296.92	6.094E+04	10.0
297.40	6.126E+04	10.0
297.87	6.159E+04	10.0
298.35	6.192E+04	10.0
298.82	6.229E+04	10.0
299.28	6.264E+04	10.0
299.75	6.302E+04	10.0
300.23	6.344E+04	10.0
300.68	6.382E+04	10.0
301.18	6.426E+04	10.0
301.65	6.473E+04	10.0
302.13	6.521E+04	10.0
302.61	6.567E+04	10.0
303.08	6.617E+04	10.0
303.56	6.668E+04	10.0
304.06	6.721E+04	10.0
304.54	6.777E+04	10.0
305.02	6.829E+04	10.0
305.52	6.888E+04	10.0
306.02	6.950E+04	10.0
306.53	7.010E+04	10.0
307.01	7.071E+04	10.0
307.46	7.128E+04	10.0
307.93	7.189E+04	10.0
308.41	7.252E+04	10.0
308.88	7.314E+04	10.0
309.36	7.380E+04	10.0
309.84	7.444E+04	10.0
310.31	7.511E+04	10.0
310.79	7.579E+04	10.0
311.26	7.647E+04	10.0
311.73	7.716E+04	10.0
312.22	7.788E+04	10.0
312.69	7.855E+04	10.0
313.17	7.929E+04	10.0
313.64	8.000E+04	10.0
314.12	8.072E+04	10.0
314.59	8.145E+04	10.0
315.07	8.221E+04	10.0
315.55	8.295E+04	10.0
316.02	8.370E+04	10.0
316.53	8.448E+04	10.0
317.00	8.524E+04	10.0
317.48	8.603E+04	10.0
317.98	8.684E+04	10.0
318.46	8.759E+04	10.0
318.93	8.835E+04	10.0
319.41	8.914E+04	10.0
319.88	8.992E+04	10.0
320.37	9.071E+04	10.0
320.84	9.148E+04	10.0
321.34	9.231E+04	10.0
321.82	9.306E+04	10.0
322.29	9.387E+04	10.0
322.77	9.466E+04	10.0
323.25	9.544E+04	10.0
323.72	9.625E+04	10.0
324.19	9.702E+04	10.0
324.67	9.779E+04	10.0
325.15	9.859E+04	10.0
325.63	9.938E+04	10.0
326.12	1.002E+05	10.0
326.60	1.010E+05	10.0
327.08	1.017E+05	10.0
327.59	1.025E+05	10.0
328.09	1.034E+05	10.0
328.56	1.042E+05	10.0
329.04	1.049E+05	10.0
329.54	1.057E+05	10.0
330.07	1.065E+05	10.0
330.55	1.073E+05	10.0
331.03	1.080E+05	10.0
331.50	1.088E+05	10.0
332.01	1.095E+05	10.0
332.48	1.103E+05	10.0
332.96	1.110E+05	10.0
333.46	1.117E+05	10.0
333.94	1.124E+05	10.0
334.47	1.132E+05	10.0
334.94	1.139E+05	10.0
335.48	1.146E+05	10.0
335.98	1.154E+05	10.0
336.48	1.161E+05	10.0
336.96	1.167E+05	10.0
337.44	1.174E+05	10.0
337.94	1.180E+05	10.0
338.42	1.187E+05	10.0
338.90	1.193E+05	10.0
339.40	1.199E+05	10.0
339.90	1.206E+05	10.0
340.40	1.212E+05	10.0
340.91	1.218E+05	10.0
341.41	1.224E+05	10.0
341.89	1.230E+05	10.0
342.36	1.235E+05	10.0
342.86	1.241E+05	10.0
343.35	1.246E+05	10.0
343.85	1.252E+05	10.0
344.35	1.257E+05	10.0
344.82	1.262E+05	10.0
345.33	1.267E+05	10.0
345.83	1.272E+05	10.0
346.31	1.276E+05	10.0
346.81	1.281E+05	10.0
347.31	1.286E+05	10.0
347.82	1.290E+05	10.0
348.35	1.295E+05	10.0
348.85	1.299E+05	10.0
349.38	1.303E+05	10.0
349.91	1.307E+05	10.0
350.44	1.311E+05	10.0
350.97	1.315E+05	10.0
351.49	1.319E+05	10.0
351.99	1.322E+05	10.0
352.49	1.325E+05	10.0
352.99	1.328E+05	10.0
353.52	1.332E+05	10.0
354.03	1.334E+05	10.0
354.53	1.337E+05	10.0
355.06	1.340E+05	10.0
355.60	1.342E+05	10.0
