Start time=	2023-06-27 17:19:42.256286
Time (s)	O2 conc. (ppm)
0.47	4.279E+04	5.0
1.43	4.260E+04	5.0
2.60	4.237E+04	5.0
3.83	4.209E+04	5.0
5.17	4.184E+04	5.0
6.65	4.159E+04	5.0
8.11	4.132E+04	5.0
9.76	4.101E+04	5.0
10.80	4.082E+04	5.0
11.84	4.066E+04	5.0
12.89	4.050E+04	5.0
13.97	4.031E+04	5.0
15.09	4.015E+04	5.0
16.14	3.999E+04	5.0
17.19	3.983E+04	5.0
18.22	3.968E+04	5.0
19.28	3.954E+04	5.0
20.42	3.941E+04	5.0
21.61	3.923E+04	5.0
22.81	3.907E+04	5.0
24.15	3.895E+04	5.0
25.32	3.879E+04	5.0
26.38	3.869E+04	5.0
27.42	3.856E+04	5.0
28.49	3.848E+04	5.0
29.57	3.838E+04	5.0
30.63	3.828E+04	5.0
31.72	3.820E+04	5.0
32.78	3.815E+04	5.0
33.81	3.808E+04	5.0
34.87	3.803E+04	5.0
35.90	3.800E+04	5.0
37.02	3.795E+04	5.0
38.16	3.792E+04	5.0
39.23	3.790E+04	5.0
40.30	3.790E+04	5.0
41.39	3.790E+04	5.0
42.66	3.790E+04	5.0
43.70	3.792E+04	5.0
44.73	3.795E+04	5.0
45.77	3.798E+04	5.0
46.81	3.803E+04	5.0
47.85	3.808E+04	5.0
49.33	3.813E+04	5.0
51.00	3.828E+04	5.0
52.04	3.836E+04	5.0
53.09	3.843E+04	5.0
54.14	3.851E+04	5.0
55.17	3.861E+04	5.0
56.20	3.871E+04	5.0
57.22	3.882E+04	5.0
58.29	3.895E+04	5.0
59.38	3.907E+04	5.0
65.09	3.981E+04	5.0
66.11	3.994E+04	5.0
67.16	4.010E+04	5.0
68.32	4.026E+04	5.0
69.36	4.042E+04	5.0
70.38	4.058E+04	5.0
71.42	4.074E+04	5.0
72.46	4.091E+04	5.0
73.50	4.107E+04	5.0
74.55	4.123E+04	5.0
75.61	4.143E+04	5.0
76.65	4.159E+04	5.0
77.67	4.173E+04	5.0
78.78	4.192E+04	5.0
79.86	4.209E+04	5.0
80.99	4.226E+04	5.0
82.04	4.246E+04	5.0
83.30	4.265E+04	5.0
84.40	4.282E+04	5.0
85.56	4.302E+04	5.0
86.91	4.325E+04	5.0
88.02	4.342E+04	5.0
89.13	4.360E+04	5.0
90.19	4.377E+04	5.0
91.20	4.392E+04	5.0
92.21	4.406E+04	5.0
93.24	4.421E+04	5.0
94.30	4.439E+04	5.0
95.32	4.453E+04	5.0
96.34	4.468E+04	5.0
97.36	4.483E+04	5.0
98.43	4.498E+04	5.0
99.47	4.513E+04	5.0
100.52	4.525E+04	5.0
101.73	4.540E+04	5.0
102.76	4.552E+04	5.0
103.77	4.567E+04	5.0
104.82	4.579E+04	5.0
105.93	4.591E+04	5.0
107.02	4.604E+04	5.0
108.07	4.616E+04	5.0
109.11	4.628E+04	5.0
110.29	4.640E+04	5.0
111.52	4.653E+04	5.0
112.91	4.665E+04	5.0
114.00	4.678E+04	5.0
115.27	4.688E+04	5.0
116.30	4.698E+04	5.0
117.32	4.707E+04	5.0
118.34	4.717E+04	5.0
119.42	4.726E+04	5.0
120.46	4.732E+04	5.0
121.48	4.742E+04	5.0
122.50	4.748E+04	5.0
123.53	4.754E+04	5.0
124.55	4.762E+04	5.0
125.59	4.769E+04	5.0
126.67	4.776E+04	5.0
127.74	4.781E+04	5.0
128.86	4.788E+04	5.0
130.14	4.794E+04	5.0
131.17	4.800E+04	5.0
132.20	4.805E+04	5.0
133.24	4.810E+04	5.0
134.63	4.816E+04	5.0
135.73	4.819E+04	5.0
136.97	4.826E+04	5.0
138.01	4.829E+04	5.0
139.04	4.832E+04	5.0
140.06	4.835E+04	5.0
141.09	4.840E+04	5.0
142.13	4.842E+04	5.0
143.21	4.845E+04	5.0
144.28	4.847E+04	5.0
145.39	4.850E+04	5.0
146.45	4.852E+04	5.0
147.48	4.855E+04	5.0
148.53	4.856E+04	5.0
149.63	4.858E+04	5.0
150.70	4.858E+04	5.0
151.77	4.861E+04	5.0
153.00	4.863E+04	5.0
154.04	4.864E+04	5.0
155.06	4.864E+04	5.0
156.10	4.866E+04	5.0
157.17	4.866E+04	5.0
158.21	4.868E+04	5.0
159.34	4.869E+04	5.0
160.43	4.869E+04	5.0
161.48	4.871E+04	5.0
162.52	4.871E+04	5.0
163.56	4.872E+04	5.0
164.59	4.871E+04	5.0
165.91	4.872E+04	5.0
167.15	4.872E+04	5.0
168.29	4.874E+04	5.0
169.55	4.874E+04	5.0
170.64	4.874E+04	5.0
171.87	4.876E+04	5.0
172.91	4.876E+04	5.0
173.95	4.876E+04	5.0
175.01	4.876E+04	5.0
176.05	4.876E+04	5.0
177.08	4.876E+04	5.0
178.13	4.877E+04	5.0
179.16	4.877E+04	5.0
180.20	4.877E+04	5.0
183.99	4.879E+04	5.0
185.04	4.879E+04	5.0
186.11	4.879E+04	5.0
187.19	4.881E+04	5.0
190.96	4.881E+04	5.0
192.29	4.882E+04	5.0
193.39	4.882E+04	5.0
194.80	4.882E+04	5.0
196.05	4.884E+04	5.0
197.13	4.884E+04	5.0
198.17	4.884E+04	5.0
199.22	4.885E+04	5.0
200.26	4.885E+04	5.0
201.31	4.885E+04	5.0
0.47	4.977E+04	5.0
1.43	4.977E+04	5.0
2.59	4.977E+04	5.0
3.82	4.977E+04	5.0
5.36	4.979E+04	5.0
6.71	4.979E+04	5.0
8.16	4.979E+04	5.0
9.68	4.979E+04	5.0
10.74	4.979E+04	5.0
11.75	4.979E+04	5.0
12.78	4.979E+04	5.0
13.80	4.979E+04	5.0
14.85	4.979E+04	5.0
15.87	4.979E+04	5.0
16.93	4.979E+04	5.0
18.12	4.979E+04	5.0
19.25	4.977E+04	5.0
20.30	4.979E+04	5.0
21.85	4.977E+04	5.0
22.92	4.975E+04	5.0
24.17	4.972E+04	5.0
25.23	4.967E+04	5.0
26.27	4.961E+04	5.0
27.30	4.952E+04	5.0
28.32	4.943E+04	5.0
29.35	4.928E+04	5.0
30.39	4.913E+04	5.0
31.40	4.895E+04	5.0
32.43	4.874E+04	5.0
33.47	4.852E+04	5.0
34.51	4.826E+04	5.0
35.58	4.799E+04	5.0
36.65	4.770E+04	5.0
37.75	4.737E+04	5.0
38.99	4.706E+04	5.0
40.03	4.665E+04	5.0
41.07	4.630E+04	5.0
42.12	4.596E+04	5.0
43.22	4.561E+04	5.0
44.26	4.525E+04	5.0
45.31	4.492E+04	5.0
46.45	4.450E+04	5.0
47.50	4.415E+04	5.0
48.52	4.383E+04	5.0
49.56	4.345E+04	5.0
50.60	4.314E+04	5.0
51.64	4.279E+04	5.0
52.66	4.246E+04	5.0
53.69	4.215E+04	5.0
54.80	4.181E+04	5.0
55.87	4.148E+04	5.0
56.94	4.118E+04	5.0
58.19	4.082E+04	5.0
59.22	4.053E+04	5.0
60.27	4.026E+04	5.0
61.30	3.999E+04	5.0
62.35	3.975E+04	5.0
63.38	3.949E+04	5.0
64.52	3.926E+04	5.0
65.60	3.900E+04	5.0
66.64	3.879E+04	5.0
67.68	3.859E+04	5.0
68.78	3.838E+04	5.0
69.85	3.820E+04	5.0
70.91	3.803E+04	5.0
72.09	3.787E+04	5.0
73.15	3.772E+04	5.0
74.19	3.760E+04	5.0
75.23	3.747E+04	5.0
76.36	3.737E+04	5.0
77.42	3.728E+04	5.0
78.51	3.720E+04	5.0
79.67	3.713E+04	5.0
80.77	3.708E+04	5.0
81.96	3.703E+04	5.0
83.06	3.703E+04	5.0
84.16	3.700E+04	5.0
85.22	3.700E+04	5.0
86.28	3.703E+04	5.0
87.32	3.705E+04	5.0
88.37	3.708E+04	5.0
89.41	3.713E+04	5.0
90.46	3.720E+04	5.0
91.49	3.725E+04	5.0
92.53	3.735E+04	5.0
93.59	3.742E+04	5.0
94.62	3.752E+04	5.0
95.67	3.762E+04	5.0
96.71	3.775E+04	5.0
97.75	3.787E+04	5.0
98.82	3.800E+04	5.0
99.87	3.815E+04	5.0
100.94	3.828E+04	5.0
102.02	3.846E+04	5.0
103.08	3.861E+04	5.0
104.11	3.876E+04	5.0
105.18	3.895E+04	5.0
106.29	3.913E+04	5.0
107.44	3.931E+04	5.0
108.64	3.949E+04	5.0
109.72	3.970E+04	5.0
110.84	3.991E+04	5.0
111.87	4.013E+04	5.0
112.89	4.031E+04	5.0
113.93	4.050E+04	5.0
114.95	4.072E+04	5.0
115.98	4.091E+04	5.0
117.02	4.110E+04	5.0
118.06	4.132E+04	5.0
119.17	4.154E+04	5.0
120.26	4.173E+04	5.0
121.42	4.195E+04	5.0
122.47	4.217E+04	5.0
123.49	4.237E+04	5.0
124.53	4.260E+04	5.0
125.65	4.277E+04	5.0
126.75	4.302E+04	5.0
127.86	4.322E+04	5.0
128.88	4.342E+04	5.0
129.94	4.363E+04	5.0
130.98	4.383E+04	5.0
132.01	4.400E+04	5.0
133.11	4.421E+04	5.0
135.57	4.462E+04	5.0
136.72	4.483E+04	5.0
137.79	4.501E+04	5.0
138.83	4.519E+04	5.0
139.87	4.534E+04	5.0
140.89	4.552E+04	5.0
141.96	4.567E+04	5.0
143.00	4.582E+04	5.0
144.08	4.598E+04	5.0
145.18	4.613E+04	5.0
146.39	4.628E+04	5.0
147.45	4.645E+04	5.0
148.47	4.657E+04	5.0
149.51	4.670E+04	5.0
150.61	4.684E+04	5.0
151.74	4.698E+04	5.0
152.80	4.709E+04	5.0
153.83	4.720E+04	5.0
154.87	4.731E+04	5.0
155.98	4.742E+04	5.0
157.03	4.753E+04	5.0
158.15	4.762E+04	5.0
159.20	4.773E+04	5.0
160.22	4.781E+04	5.0
161.24	4.791E+04	5.0
162.32	4.799E+04	5.0
163.39	4.807E+04	5.0
164.46	4.815E+04	5.0
165.64	4.821E+04	5.0
166.75	4.829E+04	5.0
167.83	4.835E+04	5.0
168.93	4.842E+04	5.0
170.02	4.848E+04	5.0
171.06	4.853E+04	5.0
172.11	4.858E+04	5.0
173.15	4.863E+04	5.0
174.19	4.866E+04	5.0
175.24	4.871E+04	5.0
176.28	4.876E+04	5.0
177.32	4.877E+04	5.0
178.36	4.881E+04	5.0
179.40	4.884E+04	5.0
180.44	4.887E+04	5.0
181.48	4.889E+04	5.0
182.51	4.890E+04	5.0
183.54	4.892E+04	5.0
184.59	4.894E+04	5.0
185.61	4.895E+04	5.0
186.71	4.895E+04	5.0
187.75	4.897E+04	5.0
188.80	4.898E+04	5.0
0.58	4.864E+04	5.0
1.56	4.864E+04	5.0
2.50	4.864E+04	5.0
3.46	4.864E+04	5.0
4.41	4.864E+04	5.0
5.39	4.864E+04	5.0
6.44	4.864E+04	5.0
9.03	4.864E+04	5.0
9.97	4.864E+04	5.0
11.57	4.864E+04	5.0
0.46	3.174E+04	5.0
1.42	3.172E+04	5.0
2.58	3.170E+04	5.0
3.88	3.168E+04	5.0
5.26	3.166E+04	5.0
8.31	3.160E+04	5.0
11.42	3.153E+04	5.0
12.94	3.151E+04	5.0
13.98	3.149E+04	5.0
15.03	3.147E+04	5.0
16.08	3.145E+04	5.0
17.17	3.145E+04	5.0
18.30	3.143E+04	5.0
19.39	3.143E+04	5.0
20.44	3.139E+04	5.0
21.49	3.139E+04	5.0
22.53	3.139E+04	5.0
23.60	3.139E+04	5.0
24.70	3.141E+04	5.0
25.94	3.143E+04	5.0
26.99	3.149E+04	5.0
28.03	3.155E+04	5.0
29.10	3.166E+04	5.0
30.28	3.179E+04	5.0
31.63	3.198E+04	5.0
32.78	3.217E+04	5.0
33.99	3.240E+04	5.0
35.04	3.264E+04	5.0
36.09	3.288E+04	5.0
37.11	3.314E+04	5.0
38.14	3.343E+04	5.0
39.16	3.370E+04	5.0
40.19	3.399E+04	5.0
41.23	3.431E+04	5.0
42.26	3.463E+04	5.0
43.29	3.495E+04	5.0
44.31	3.528E+04	5.0
45.37	3.563E+04	5.0
46.39	3.599E+04	5.0
47.44	3.632E+04	5.0
48.45	3.669E+04	5.0
49.53	3.705E+04	5.0
50.61	3.742E+04	5.0
51.71	3.780E+04	5.0
52.81	3.820E+04	5.0
53.86	3.859E+04	5.0
54.90	3.897E+04	5.0
55.98	3.934E+04	5.0
57.08	3.973E+04	5.0
58.38	4.015E+04	5.0
59.47	4.055E+04	5.0
60.51	4.093E+04	5.0
61.57	4.129E+04	5.0
62.72	4.165E+04	5.0
63.83	4.203E+04	5.0
65.02	4.240E+04	5.0
66.09	4.279E+04	5.0
67.20	4.317E+04	5.0
68.33	4.351E+04	5.0
69.38	4.386E+04	5.0
70.43	4.415E+04	5.0
71.49	4.447E+04	5.0
72.70	4.483E+04	5.0
73.76	4.513E+04	5.0
74.81	4.540E+04	5.0
75.86	4.570E+04	5.0
76.94	4.598E+04	5.0
77.99	4.624E+04	5.0
79.05	4.648E+04	5.0
80.20	4.674E+04	5.0
81.28	4.699E+04	5.0
82.44	4.726E+04	5.0
83.49	4.748E+04	5.0
84.54	4.769E+04	5.0
85.57	4.789E+04	5.0
86.62	4.808E+04	5.0
87.69	4.826E+04	5.0
88.83	4.845E+04	5.0
90.96	4.879E+04	5.0
92.17	4.897E+04	5.0
93.18	4.910E+04	5.0
94.25	4.923E+04	5.0
95.30	4.936E+04	5.0
96.33	4.947E+04	5.0
97.38	4.959E+04	5.0
98.39	4.969E+04	5.0
99.47	4.979E+04	5.0
100.61	4.987E+04	5.0
101.66	4.995E+04	5.0
102.72	5.004E+04	5.0
103.76	5.010E+04	5.0
104.82	5.017E+04	5.0
105.85	5.020E+04	5.0
106.92	5.025E+04	5.0
107.96	5.030E+04	5.0
108.99	5.034E+04	5.0
110.02	5.039E+04	5.0
111.09	5.039E+04	5.0
112.20	5.042E+04	5.0
113.38	5.044E+04	5.0
114.70	5.044E+04	5.0
115.85	5.044E+04	5.0
116.93	5.044E+04	5.0
118.05	5.044E+04	5.0
119.17	5.042E+04	5.0
120.21	5.040E+04	5.0
121.23	5.040E+04	5.0
122.25	5.037E+04	5.0
123.28	5.035E+04	5.0
124.30	5.032E+04	5.0
125.35	5.029E+04	5.0
126.39	5.025E+04	5.0
127.42	5.022E+04	5.0
128.45	5.019E+04	5.0
129.49	5.015E+04	5.0
130.53	5.010E+04	5.0
131.56	5.007E+04	5.0
132.59	5.002E+04	5.0
133.64	4.999E+04	5.0
134.67	4.994E+04	5.0
135.79	4.990E+04	5.0
136.83	4.985E+04	5.0
137.86	4.982E+04	5.0
138.91	4.977E+04	5.0
140.06	4.974E+04	5.0
141.33	4.967E+04	5.0
142.56	4.962E+04	5.0
143.75	4.957E+04	5.0
144.84	4.952E+04	5.0
146.23	4.946E+04	5.0
147.27	4.939E+04	5.0
148.33	4.936E+04	5.0
149.36	4.931E+04	5.0
150.42	4.926E+04	5.0
151.45	4.923E+04	5.0
152.48	4.920E+04	5.0
153.53	4.915E+04	5.0
154.58	4.911E+04	5.0
155.62	4.908E+04	5.0
156.66	4.905E+04	5.0
157.75	4.900E+04	5.0
158.79	4.897E+04	5.0
159.83	4.895E+04	5.0
160.95	4.892E+04	5.0
162.06	4.889E+04	5.0
163.10	4.885E+04	5.0
164.14	4.884E+04	5.0
166.45	4.879E+04	5.0
167.58	4.876E+04	5.0
168.65	4.874E+04	5.0
169.70	4.872E+04	5.0
170.75	4.871E+04	5.0
171.79	4.869E+04	5.0
172.82	4.868E+04	5.0
173.87	4.866E+04	5.0
174.93	4.864E+04	5.0
176.00	4.864E+04	5.0
177.16	4.864E+04	5.0
178.40	4.863E+04	5.0
179.42	4.864E+04	5.0
180.48	4.864E+04	5.0
181.55	4.864E+04	5.0
182.63	4.864E+04	5.0
183.77	4.864E+04	5.0
184.82	4.864E+04	5.0
185.86	4.866E+04	5.0
186.89	4.866E+04	5.0
187.97	4.866E+04	5.0
189.08	4.868E+04	5.0
190.31	4.869E+04	5.0
191.38	4.871E+04	5.0
192.41	4.872E+04	5.0
193.46	4.874E+04	5.0
194.55	4.877E+04	5.0
